Temperature (K)	Field (T)	Angle (°)	Ic/w (A/cm)	Ic (A)	n	V0 (µV)	V1 (µV/A)	Hall field (T)	Hall angle (°)	Set temperature (K)	Set field (T)	Set angle (°)
24.99	2.000	0.00	1340.35	536.14	22.43	-0.18049	0.00131	2.080	-0.23	25.00	2.000	0.00
25.00	2.000	5.00	1323.35	529.34	20.29	0.02140	0.00042	2.082	4.74	25.00	2.000	5.00
25.00	2.000	10.00	1328.97	531.59	20.68	-0.10797	0.00108	2.082	9.68	25.00	2.000	10.00
25.00	2.000	15.00	1335.95	534.38	21.28	-0.10321	0.00136	2.080	14.59	25.00	2.000	15.00
25.01	2.000	20.00	1343.11	537.24	21.31	-0.07462	0.00151	2.078	19.46	25.00	2.000	20.00
25.00	2.000	25.00	1349.68	539.87	21.20	-0.03898	0.00152	2.074	24.33	25.00	2.000	25.00
25.00	2.000	30.00	1354.34	541.74	20.22	-0.06659	0.00149	2.069	29.18	25.00	2.000	30.00
25.00	2.000	35.00	1369.06	547.63	20.05	-0.06186	0.00157	2.062	34.04	25.00	2.000	35.00
25.00	2.000	40.00	1385.48	554.19	19.52	-0.02786	0.00156	2.054	38.89	25.00	2.000	40.00
25.00	2.000	45.00	1410.23	564.09	19.41	-0.06620	0.00150	2.044	43.76	25.00	2.000	45.00
25.00	2.000	50.00	1437.59	575.04	18.81	-0.09506	0.00143	2.034	48.65	25.00	2.000	50.00
25.00	2.000	55.00	1475.84	590.34	18.34	-0.05043	0.00128	2.023	53.59	25.00	2.000	55.00
25.00	2.000	60.00	1526.06	610.42	18.17	-0.05760	0.00116	2.013	58.59	25.00	2.000	60.00
25.00	2.000	65.00	1588.48	635.39	17.67	-0.16347	0.00105	2.004	63.62	25.00	2.000	65.00
25.03	2.000	70.00	1678.08	671.23	17.28	-0.04167	0.00076	1.995	68.68	25.00	2.000	70.00
25.00	2.000	75.00	1799.77	719.91	17.21	-0.09021	0.00062	1.988	73.80	25.00	2.000	75.00
24.99	2.000	78.00	1900.99	760.40	17.51	-0.07723	0.00056	1.984	76.91	25.00	2.000	78.00
24.98	2.000	81.00	2031.50	812.60	17.83	-0.12578	0.00042	1.981	80.01	25.00	2.000	81.00
25.00	2.000	84.00	2200.60	880.24	18.89	-0.07990	0.00031	1.978	83.08	25.00	2.000	84.00
24.99	2.000	86.00	--	--	--	--	--	1.977	85.22	25.00	2.000	86.00	Current limit exceeded.
--	--	--	--	--	--	--	--	--	--	25.00	2.000	88.00	Measurement skipped. (Current limit exceeded.)
--	--	--	--	--	--	--	--	--	--	25.00	2.000	90.00	Measurement skipped. (Current limit exceeded.)
--	--	--	--	--	--	--	--	--	--	25.00	2.000	92.00	Measurement skipped. (Current limit exceeded.)
24.99	2.000	94.00	--	--	--	--	--	1.973	93.30	25.00	2.000	94.00	Current limit exceeded.
25.00	2.000	96.00	2241.06	896.43	18.83	-0.14550	0.00001	1.974	95.58	25.00	2.000	96.00
25.00	2.000	99.00	2090.82	836.33	18.99	-0.09874	0.00002	1.970	98.56	25.00	2.000	99.00
25.00	2.000	102.00	1950.53	780.21	18.69	-0.14060	0.00006	1.983	101.60	25.00	2.000	102.00
25.00	2.000	105.00	1844.51	737.80	18.06	-0.11421	0.00001	1.987	104.57	25.00	2.000	105.00
24.99	2.000	110.00	1718.51	687.40	18.18	-0.04106	-0.00020	1.985	109.49	25.00	2.000	110.00
25.00	2.000	115.00	1633.06	653.23	18.61	-0.05130	-0.00015	1.982	114.44	25.00	2.000	115.00
25.00	2.000	120.00	1564.05	625.62	18.90	-0.08958	-0.00013	1.980	119.37	25.00	2.000	120.00
25.00	2.000	125.00	1515.00	606.00	19.25	-0.09741	0.00003	1.978	124.33	25.00	2.000	125.00
25.00	2.000	130.00	1468.68	587.47	19.48	-0.04063	0.00005	1.977	129.29	25.00	2.000	130.00
24.99	2.000	135.00	1443.92	577.57	19.84	-0.06487	0.00023	1.973	134.29	25.00	2.000	135.00
25.00	2.000	140.00	1419.86	567.94	20.28	-0.11217	0.00042	1.971	139.28	25.00	2.000	140.00
25.00	2.000	145.00	1400.76	560.30	20.72	-0.10723	0.00053	1.967	144.30	25.00	2.000	145.00
25.00	2.000	150.00	1390.77	556.31	21.92	-0.16311	0.00072	1.965	149.32	25.00	2.000	150.00
25.00	2.000	155.00	1372.99	549.20	21.57	-0.11779	0.00082	1.963	154.30	25.00	2.000	155.00
25.00	2.000	160.00	1362.62	545.05	21.88	-0.15289	0.00097	1.963	159.33	25.00	2.000	160.00
25.00	2.000	165.00	1351.57	540.63	21.64	-0.10617	0.00090	1.962	164.36	25.00	2.000	165.00
25.00	2.000	170.00	1344.00	537.60	21.45	-0.16536	0.00082	1.961	169.43	25.00	2.000	170.00
25.00	2.000	175.00	1334.26	533.70	20.71	-0.06302	0.00063	1.960	174.58	25.00	2.000	175.00
25.00	2.000	180.00	1319.65	527.86	18.44	0.03092	0.00019	1.960	179.80	25.00	2.000	180.00
25.00	2.000	185.00	1333.38	533.35	19.96	-0.04276	0.00075	1.961	184.96	25.00	2.000	185.00
25.00	2.000	190.00	1339.58	535.83	20.66	-0.10212	0.00134	1.963	190.11	25.00	2.000	190.00
25.01	2.000	195.00	1345.81	538.32	21.37	-0.21553	0.00186	1.967	195.27	25.00	2.000	195.00
25.01	2.000	200.00	1346.17	538.47	20.94	-0.19475	0.00190	1.971	200.37	25.00	2.000	200.00
25.01	2.000	205.00	1354.67	541.87	20.98	-0.19993	0.00217	1.976	205.42	25.00	2.000	205.00
25.01	2.000	210.00	1367.03	546.81	21.64	-0.19510	0.00226	1.982	210.46	25.00	2.000	210.00
25.01	2.000	215.00	1375.34	550.13	20.84	-0.13624	0.00225	1.989	215.45	25.00	2.000	215.00
25.00	2.000	220.00	1386.91	554.77	20.07	-0.12415	0.00220	1.996	220.37	25.00	2.000	220.00
25.01	2.000	225.00	1418.40	567.36	20.03	-0.16539	0.00224	2.002	225.24	25.00	2.000	225.00
25.00	2.000	230.00	1446.81	578.73	19.76	-0.13452	0.00208	2.007	230.12	25.00	2.000	230.00
25.00	2.000	235.00	1480.78	592.31	18.86	-0.16898	0.00204	2.011	234.97	25.00	2.000	235.00
25.01	2.000	240.00	1526.54	610.62	18.37	-0.15578	0.00193	2.014	239.81	25.00	2.000	240.00
